  1.00000      0.00000      0.00000
  1.01000      0.16468      0.00000
  1.02000      0.16271      0.00000
  1.03000      0.16081      0.00000
  1.04000      0.15898      0.00000
  1.05000      0.15721      0.00000
  1.06000      0.15550      0.00000
  1.07000      0.15386      0.00000
  1.08000      0.15227      0.00000
  1.09000      0.15074      0.00000
  1.10000      0.14926      0.00000
  1.11000      0.14784      0.00000
  1.12000      0.14647      0.00000
  1.13000      0.14516      0.00000
  1.14000      0.14390      0.00000
  1.15000      0.14268      0.00000
  1.16000      0.14152      0.00000
  1.17000      0.14040      0.00000
  1.18000      0.13933      0.00000
  1.19000      0.13831      0.00000
  1.20000      0.13734      0.00000
  1.21000      0.13641      0.00000
  1.22000      0.13553      0.00000
  1.23000      0.13469      0.00000
  1.24000      0.13390      0.00000
  1.25000      0.13316      0.00000
  1.26000      0.13246      0.00000
  1.27000      0.13180      0.00000
  1.28000      0.13119      0.00000
  1.29000      0.13063      0.00000
  1.30000      0.13011      0.00000
  1.31000      0.12963      0.00000
  1.32000      0.12921      0.00000
  1.33000      0.12883      0.00000
  1.34000      0.12850      0.00000
  1.35000      0.12822      0.00000
  1.36000      0.12799      0.00000
  1.37000      0.12781      0.00000
  1.38000      0.12768      0.00000
  1.39000      0.12761      0.00000
  1.40000      0.12759      0.00000
  1.41000      0.12763      0.00000
  1.42000      0.12774      0.00000
  1.43000      0.12790      0.00000
  1.44000      0.12813      0.00000
  1.45000      0.12843      0.00000
  1.46000      0.12880      0.00000
  1.47000      0.12925      0.00000
  1.48000      0.12977      0.00000
  1.49000      0.13038      0.00000
  1.50000      0.13109      0.00000
  1.51000      0.13188      0.00000
  1.52000      0.13278      0.00000
  1.53000      0.13379      0.00000
  1.54000      0.13492      0.00000
  1.55000      0.13617      0.00000
  1.56000      0.13757      0.00000
  1.57000      0.13911      0.00000
  1.58000      0.14082      0.00000
  1.59000      0.14270      0.00000
  1.60000      0.14479      0.00000
  1.61000      0.14708      0.00000
  1.62000      0.14962      0.00000
  1.63000      0.15243      0.00000
  1.64000      0.15553      0.00000
  1.65000      0.15896      0.00000
  1.66000      0.16278      0.00000
  1.67000      0.16701      0.00000
  1.68000      0.17174      0.00000
  1.69000      0.17701      0.00000
  1.70000      0.18293      0.00000
  1.71000      0.18960      0.00000
  1.72000      0.19713      0.00000
  1.73000      0.20569      0.00000
  1.74000      0.21548      0.00000
  1.75000      0.22673      0.00000
  1.76000      0.23976      0.00000
  1.77000      0.25498      0.00000
  1.78000      0.27293      0.00000
  1.79000      0.29432      0.00000
  1.80000      0.32013      0.00000
  1.81000      0.35173      0.00000
  1.82000      0.39109      0.00000
  1.83000      0.44113      0.00000
  1.84000      0.50621      0.00000
  1.85000      0.59334      0.00000
  1.86000      0.71418      0.00000
  1.87000      0.88981      0.00000
  1.88000      1.17402      0.00000
  1.89000      1.84544      0.00000
  1.90000      4.44185      0.00000
  1.91000     13.65368      0.00000
  1.92000     33.36107      0.00000
  1.93000     51.93200      0.00000
  1.94000     45.82320      0.00000
  1.95000     23.84023      0.00000
  1.96000      8.49906      0.00000
  1.97000      2.95463      0.00000
  1.98000      1.61708      0.00000
  1.99000      1.27359      0.00000
  2.00000      1.15532      0.00000
  2.01000      1.14313      0.00000
  2.02000      1.22019      0.00000
  2.03000      1.39909      0.00000
  2.04000      1.73227      0.00000
  2.05000      2.47274      0.00000
  2.06000      5.14710      0.00000
  2.07000     15.62524      0.00000
  2.08000     42.63756      0.00000
  2.09000     77.69967      0.00000
  2.10000     82.50830      0.00000
  2.11000     49.87510      0.00000
  2.12000     19.37522      0.00000
  2.13000      6.08589      0.00000
  2.14000      2.48631      0.00000
  2.15000      1.53766      0.00000
  2.16000      1.12154      0.00000
  2.17000      0.86510      0.00000
  2.18000      0.69124      0.00000
  2.19000      0.56795      0.00000
  2.20000      0.47749      0.00000
  2.21000      0.40920      0.00000
  2.22000      0.35643      0.00000
  2.23000      0.31483      0.00000
  2.24000      0.28147      0.00000
  2.25000      0.25433      0.00000
  2.26000      0.23197      0.00000
  2.27000      0.21333      0.00000
  2.28000      0.19766      0.00000
  2.29000      0.18436      0.00000
  2.30000      0.17300      0.00000
  2.31000      0.16322      0.00000
  2.32000      0.15477      0.00000
  2.33000      0.14741      0.00000
  2.34000      0.14100      0.00000
  2.35000      0.13538      0.00000
  2.36000      0.13045      0.00000
  2.37000      0.12611      0.00000
  2.38000      0.12229      0.00000
  2.39000      0.11893      0.00000
  2.40000      0.11597      0.00000
  2.41000      0.11338      0.00000
  2.42000      0.11112      0.00000
  2.43000      0.10915      0.00000
  2.44000      0.10747      0.00000
  2.45000      0.10605      0.00000
  2.46000      0.10487      0.00000
  2.47000      0.10393      0.00000
  2.48000      0.10323      0.00000
  2.49000      0.10276      0.00000
  2.50000      0.10254      0.00000
  2.51000      0.10256      0.00000
  2.52000      0.10286      0.00000
  2.53000      0.10346      0.00000
  2.54000      0.10438      0.00000
  2.55000      0.10570      0.00000
  2.56000      0.10747      0.00000
  2.57000      0.10980      0.00000
  2.58000      0.11283      0.00000
  2.59000      0.11674      0.00000
  2.60000      0.12182      0.00000
  2.61000      0.12849      0.00000
  2.62000      0.13737      0.00000
  2.63000      0.14944      0.00000
  2.64000      0.16636      0.00000
  2.65000      0.19097      0.00000
  2.66000      0.22943      0.00000
  2.67000      0.30681      0.00000
  2.68000      0.56797      0.00000
  2.69000      1.56409      0.00000
  2.70000      4.11704      0.00000
  2.71000      7.45219      0.00000
  2.72000      7.94388      0.00000
  2.73000      4.85956      0.00000
  2.74000      1.95862      0.00000
  2.75000      0.68122      0.00000
  2.76000      0.32907      0.00000
  2.77000      0.23456      0.00000
  2.78000      0.19317      0.00000
  2.79000      0.16805      0.00000
  2.80000      0.15140      0.00000
  2.81000      0.13996      0.00000
  2.82000      0.13193      0.00000
  2.83000      0.12622      0.00000
  2.84000      0.12216      0.00000
  2.85000      0.11933      0.00000
  2.86000      0.11743      0.00000
  2.87000      0.11627      0.00000
  2.88000      0.11571      0.00000
  2.89000      0.11567      0.00000
  2.90000      0.11607      0.00000
  2.91000      0.11689      0.00000
  2.92000      0.11811      0.00000
  2.93000      0.11971      0.00000
  2.94000      0.12170      0.00000
  2.95000      0.12413      0.00000
  2.96000      0.12702      0.00000
  2.97000      0.13045      0.00000
  2.98000      0.13450      0.00000
  2.99000      0.13932      0.00000
  3.00000      0.14510      0.00000
  3.01000      0.15213      0.00000
  3.02000      0.16087      0.00000
  3.03000      0.17203      0.00000
  3.04000      0.18681      0.00000
  3.05000      0.20764      0.00000
  3.06000      0.24285      0.00000
  3.07000      0.33971      0.00000
  3.08000      0.69546      0.00000
  3.09000      1.67215      0.00000
  3.10000      3.13204      0.00000
  3.11000      3.66483      0.00000
  3.12000      2.51244      0.00000
  3.13000      1.19770      0.00000
  3.14000      0.56885      0.00000
  3.15000      0.41579      0.00000
  3.16000      0.44837      0.00000
  3.17000      0.57940      0.00000
  3.18000      0.72835      0.00000
  3.19000      0.76213      0.00000
  3.20000      0.73877      0.00000
  3.21000      0.81506      0.00000
  3.22000      1.13742      0.00000
  3.23000      2.37796      0.00000
  3.24000      6.87908      0.00000
  3.25000     17.34460      0.00000
  3.26000     29.11991      0.00000
  3.27000     28.23783      0.00000
  3.28000     15.97515      0.00000
  3.29000      6.13121      0.00000
  3.30000      2.15732      0.00000
  3.31000      1.10003      0.00000
  3.32000      0.80352      0.00000
  3.33000      0.67262      0.00000
  3.34000      0.60230      0.00000
  3.35000      0.56854      0.00000
  3.36000      0.56203      0.00000
  3.37000      0.57974      0.00000
  3.38000      0.62343      0.00000
  3.39000      0.70087      0.00000
  3.40000      0.83767      0.00000
  3.41000      1.16342      0.00000
  3.42000      2.25018      0.00000
  3.43000      5.37366      0.00000
  3.44000     10.93379      0.00000
  3.45000     16.09042      0.00000
  3.46000     19.50068      0.00000
  3.47000     25.12094      0.00000
  3.48000     26.94368      0.00000
  3.49000     18.15216      0.00000
  3.50000      8.18127      0.00000
  3.51000      3.17928      0.00000
  3.52000      1.70739      0.00000
  3.53000      1.40836      0.00000
  3.54000      1.43504      0.00000
  3.55000      1.76423      0.00000
  3.56000      3.19711      0.00000
  3.57000      8.46905      0.00000
  3.58000     20.60265      0.00000
  3.59000     34.01157      0.00000
  3.60000     32.62491      0.00000
  3.61000     18.47555      0.00000
  3.62000      7.32897      0.00000
  3.63000      2.89245      0.00000
  3.64000      1.76605      0.00000
  3.65000      1.53311      0.00000
  3.66000      1.54834      0.00000
  3.67000      1.74273      0.00000
  3.68000      2.30476      0.00000
  3.69000      4.40789      0.00000
  3.70000     12.08601      0.00000
  3.71000     30.26489      0.00000
  3.72000     51.57586      0.00000
  3.73000     51.36850      0.00000
  3.74000     29.91997      0.00000
  3.75000     11.90387      0.00000
  3.76000      4.38815      0.00000
  3.77000      2.37087      0.00000
  3.78000      1.86812      0.00000
  3.79000      1.73407      0.00000
  3.80000      1.78245      0.00000
  3.81000      2.01930      0.00000
  3.82000      2.63603      0.00000
  3.83000      4.80393      0.00000
  3.84000     13.01817      0.00000
  3.85000     34.28593      0.00000
  3.86000     63.12736      0.00000
  3.87000     69.05494      0.00000
  3.88000     43.23331      0.00000
  3.89000     17.80505      0.00000
  3.90000      6.16064      0.00000
  3.91000      2.80711      0.00000
  3.92000      1.89047      0.00000
  3.93000      1.51030      0.00000
  3.94000      1.31012      0.00000
  3.95000      1.22094      0.00000
  3.96000      1.22986      0.00000
  3.97000      1.39008      0.00000
  3.98000      2.08288      0.00000
  3.99000      4.83814      0.00000
  4.00000     12.21303      0.00000
  4.01000     22.68583      0.00000
  4.02000     25.57636      0.00000
  4.03000     16.59974      0.00000
  4.04000      7.19537      0.00000
  4.05000      2.74845      0.00000
  4.06000      1.45680      0.00000
  4.07000      1.13059      0.00000
  4.08000      1.02672      0.00000
  4.09000      1.00510      0.00000
  4.10000      1.04265      0.00000
  4.11000      1.13923      0.00000
  4.12000      1.30841      0.00000
  4.13000      1.58271      0.00000
  4.14000      2.04533      0.00000
  4.15000      3.07006      0.00000
  4.16000      6.58430      0.00000
  4.17000     18.61482      0.00000
  4.18000     45.65712      0.00000
  4.19000     76.04377      0.00000
  4.20000     75.80516      0.00000
  4.21000     45.71372      0.00000
  4.22000     18.84815      0.00000
  4.23000      6.79543      0.00000
  4.24000      3.25549      0.00000
  4.25000      2.18231      0.00000
  4.26000      1.62627      0.00000
  4.27000      1.28799      0.00000
  4.28000      1.09834      0.00000
  4.29000      1.00189      0.00000
  4.30000      0.97058      0.00000
  4.31000      1.00115      0.00000
  4.32000      1.11446      0.00000
  4.33000      1.42898      0.00000
  4.34000      2.58492      0.00000
  4.35000      6.64159      0.00000
  4.36000     15.83431      0.00000
  4.37000     26.09693      0.00000
  4.38000     25.91432      0.00000
  4.39000     17.92310      0.00000
  4.40000     13.52874      0.00000
  4.41000     11.58674      0.00000
  4.42000      7.45294      0.00000
  4.43000      3.51196      0.00000
  4.44000      1.55881      0.00000
  4.45000      0.92757      0.00000
  4.46000      0.74199      0.00000
  4.47000      0.71061      0.00000
  4.48000      0.92666      0.00000
  4.49000      1.84127      0.00000
  4.50000      3.81749      0.00000
  4.51000      5.69091      0.00000
  4.52000      5.03306      0.00000
  4.53000      2.81487      0.00000
  4.54000      1.33044      0.00000
  4.55000      0.82810      0.00000
  4.56000      0.63027      0.00000
  4.57000      0.44876      0.00000
  4.58000      0.32594      0.00000
  4.59000      0.26817      0.00000
  4.60000      0.24226      0.00000
  4.61000      0.22751      0.00000
  4.62000      0.21771      0.00000
  4.63000      0.21125      0.00000
  4.64000      0.20751      0.00000
  4.65000      0.20629      0.00000
  4.66000      0.20772      0.00000
  4.67000      0.21245      0.00000
  4.68000      0.22311      0.00000
  4.69000      0.25310      0.00000
  4.70000      0.35007      0.00000
  4.71000      0.58297      0.00000
  4.72000      0.89150      0.00000
  4.73000      0.99015      0.00000
  4.74000      0.92897      0.00000
  4.75000      1.30504      0.00000
  4.76000      2.34734      0.00000
  4.77000      3.16682      0.00000
  4.78000      2.55017      0.00000
  4.79000      1.35796      0.00000
  4.80000      0.63368      0.00000
  4.81000      0.38867      0.00000
  4.82000      0.33307      0.00000
  4.83000      0.32590      0.00000
  4.84000      0.33531      0.00000
  4.85000      0.35704      0.00000
  4.86000      0.39254      0.00000
  4.87000      0.44671      0.00000
  4.88000      0.53347      0.00000
  4.89000      0.71169      0.00000
  4.90000      1.22803      0.00000
  4.91000      2.69505      0.00000
  4.92000      5.75628      0.00000
  4.93000     10.09094      0.00000
  4.94000     14.26808      0.00000
  4.95000     15.71773      0.00000
  4.96000     11.17384      0.00000
  4.97000      5.34796      0.00000
  4.98000      2.13129      0.00000
  4.99000      1.05975      0.00000
  5.00000      0.77200      0.00000
  5.01000      0.67455      0.00000
  5.02000      0.63412      0.00000
  5.03000      0.62488      0.00000
  5.04000      0.63875      0.00000
  5.05000      0.67302      0.00000
  5.06000      0.72813      0.00000
  5.07000      0.80723      0.00000
  5.08000      0.91665      0.00000
  5.09000      1.06717      0.00000
  5.10000      1.27674      0.00000
  5.11000      1.57602      0.00000
  5.12000      2.02187      0.00000
  5.13000      2.76152      0.00000
  5.14000      4.46633      0.00000
  5.15000     10.23958      0.00000
  5.16000     28.40043      0.00000
  5.17000     65.15058      0.00000
  5.18000    100.00000      0.00000
  5.19000     90.34180      0.00000
  5.20000     49.74816      0.00000
  5.21000     20.45115      0.00000
  5.22000      9.38892      0.00000
  5.23000      5.82573      0.00000
  5.24000      3.66434      0.00000
  5.25000      2.29392      0.00000
  5.26000      1.61325      0.00000
  5.27000      1.28603      0.00000
  5.28000      1.09923      0.00000
  5.29000      0.98272      0.00000
  5.30000      0.91665      0.00000
  5.31000      0.89910      0.00000
  5.32000      0.96063      0.00000
  5.33000      1.28540      0.00000
  5.34000      2.47664      0.00000
  5.35000      5.28929      0.00000
  5.36000      8.82558      0.00000
  5.37000      9.56119      0.00000
  5.38000      6.80111      0.00000
  5.39000      3.59518      0.00000
  5.40000      1.98672      0.00000
  5.41000      2.05546      0.00000
  5.42000      3.51431      0.00000
  5.43000      5.49524      0.00000
  5.44000      5.99013      0.00000
  5.45000      4.75758      0.00000
  5.46000      3.21551      0.00000
  5.47000      2.68608      0.00000
  5.48000      3.12056      0.00000
  5.49000      3.16078      0.00000
  5.50000      2.28617      0.00000
  5.51000      1.49042      0.00000
  5.52000      1.18738      0.00000
  5.53000      1.21917      0.00000
  5.54000      1.45671      0.00000
  5.55000      1.93435      0.00000
  5.56000      2.83626      0.00000
  5.57000      4.89047      0.00000
  5.58000      9.35470      0.00000
  5.59000     15.37617      0.00000
  5.60000     20.03575      0.00000
  5.61000     28.49248      0.00000
  5.62000     45.14185      0.00000
  5.63000     52.84013      0.00000
  5.64000     38.55146      0.00000
  5.65000     24.68445      0.00000
  5.66000     24.88995      0.00000
  5.67000     29.95714      0.00000
  5.68000     24.64013      0.00000
  5.69000     13.52642      0.00000
  5.70000      6.30381      0.00000
  5.71000      3.71627      0.00000
  5.72000      3.21909      0.00000
  5.73000      3.46286      0.00000
  5.74000      4.47467      0.00000
  5.75000      7.96399      0.00000
  5.76000     18.61437      0.00000
  5.77000     40.87106      0.00000
  5.78000     68.51163      0.00000
  5.79000     85.18345      0.00000
  5.80000     85.92637      0.00000
  5.81000     61.39426      0.00000
  5.82000     31.33694      0.00000
  5.83000     15.62820      0.00000
  5.84000     11.80205      0.00000
  5.85000      9.87834      0.00000
  5.86000      6.59550      0.00000
  5.87000      4.21594      0.00000
  5.88000      3.66148      0.00000
  5.89000      5.34149      0.00000
  5.90000     10.87639      0.00000
  5.91000     21.17499      0.00000
  5.92000     31.64034      0.00000
  5.93000     34.78720      0.00000
  5.94000     26.03878      0.00000
  5.95000     13.43234      0.00000
  5.96000      5.86718      0.00000
  5.97000      3.23534      0.00000
  5.98000      3.03816      0.00000
  5.99000      4.99824      0.00000
  6.00000     10.69860      0.00000
  6.01000     18.98616      0.00000
  6.02000     21.51118      0.00000
  6.03000     14.58678      0.00000
  6.04000      7.58689      0.00000
  6.05000      5.84873      0.00000
  6.06000      9.51210      0.00000
  6.07000     15.49731      0.00000
  6.08000     16.40732      0.00000
  6.09000     10.63269      0.00000
  6.10000      5.41176      0.00000
  6.11000      3.66171      0.00000
  6.12000      4.18763      0.00000
  6.13000      4.92626      0.00000
  6.14000      5.41455      0.00000
  6.15000      8.72411      0.00000
  6.16000     17.30373      0.00000
  6.17000     26.46087      0.00000
  6.18000     25.37522      0.00000
  6.19000     16.75552      0.00000
  6.20000     11.71613      0.00000
  6.21000     12.73718      0.00000
  6.22000     13.44599      0.00000
  6.23000      9.43182      0.00000
  6.24000      5.08678      0.00000
  6.25000      3.22570      0.00000
  6.26000      4.07518      0.00000
  6.27000      8.74183      0.00000
  6.28000     17.81318      0.00000
  6.29000     24.95705      0.00000
  6.30000     20.53538      0.00000
  6.31000     11.01179      0.00000
  6.32000      5.01115      0.00000
  6.33000      3.21493      0.00000
  6.34000      4.29161      0.00000
  6.35000      8.79170      0.00000
  6.36000     16.26061      0.00000
  6.37000     20.16891      0.00000
  6.38000     15.14419      0.00000
  6.39000      8.70003      0.00000
  6.40000      7.15402      0.00000
  6.41000     12.79147      0.00000
  6.42000     25.90199      0.00000
  6.43000     38.68155      0.00000
  6.44000     36.14013      0.00000
  6.45000     24.97716      0.00000
  6.46000     17.15717      0.00000
  6.47000     10.83266      0.00000
  6.48000      5.67170      0.00000
  6.49000      2.89616      0.00000
  6.50000      1.99576      0.00000
  6.51000      2.14798      0.00000
  6.52000      2.98633      0.00000
  6.53000      3.74819      0.00000
  6.54000      3.31998      0.00000
  6.55000      2.35730      0.00000
  6.56000      1.87821      0.00000
  6.57000      2.14861      0.00000
  6.58000      3.81501      0.00000
  6.59000      8.97969      0.00000
  6.60000     19.16119      0.00000
  6.61000     29.47091      0.00000
  6.62000     30.63373      0.00000
  6.63000     24.90849      0.00000
  6.64000     15.58334      0.00000
  6.65000      7.79059      0.00000
  6.66000      4.18492      0.00000
  6.67000      4.35705      0.00000
  6.68000      8.64490      0.00000
  6.69000     16.90895      0.00000
  6.70000     22.64030      0.00000
  6.71000     17.62326      0.00000
  6.72000      8.86594      0.00000
  6.73000      3.58425      0.00000
  6.74000      1.67967      0.00000
  6.75000      1.11386      0.00000
  6.76000      0.89029      0.00000
  6.77000      0.76599      0.00000
  6.78000      0.69082      0.00000
  6.79000      0.64829      0.00000
  6.80000      0.63081      0.00000
  6.81000      0.63583      0.00000
  6.82000      0.66426      0.00000
  6.83000      0.72122      0.00000
  6.84000      0.81873      0.00000
  6.85000      0.99138      0.00000
  6.86000      1.39722      0.00000
  6.87000      2.69634      0.00000
  6.88000      6.35949      0.00000
  6.89000     12.83846      0.00000
  6.90000     17.60614      0.00000
  6.91000     15.02558      0.00000
  6.92000     11.14328      0.00000
  6.93000     11.99769      0.00000
  6.94000     14.87814      0.00000
  6.95000     13.96904      0.00000
  6.96000     12.48121      0.00000
  6.97000     13.34444      0.00000
  6.98000     12.32886      0.00000
  6.99000      9.39943      0.00000
